E_BEB(eV),Q_BEB(A^2),Q_DM(A^2),Q_combined(A^2)
11.657,0,0,0
12,0.032351,0.026448,0.026938
13,0.15366,0.13873,0.14002
14,0.39288,0.34556,0.34981
15,0.64064,0.58124,0.58678
16,0.93771,0.86229,0.86961
17,1.2724,1.1905,1.1988
18,1.5953,1.5261,1.5334
19,1.9028,1.8595,1.8642
20,2.1931,2.1847,2.1857
21,2.4655,2.4981,2.4942
22,2.7394,2.8253,2.8149
23,2.9972,3.1402,3.1221
24,3.2389,3.439,3.4127
25,3.4664,3.7231,3.6881
26,3.6901,4.0086,3.9635
27,3.9,4.2779,4.2224
28,4.0966,4.5307,4.4645
29,4.2806,4.767,4.6902
30,4.4526,4.9876,4.9
31,4.6134,5.193,5.0946
32,4.7637,5.384,5.2749
33,4.9039,5.5613,5.4415
34,5.0349,5.7257,5.5953
35,5.157,5.878,5.7371
36,5.271,6.0188,5.8676
37,5.3773,6.1489,5.9874
38,5.4764,6.2689,6.0974
39,5.5687,6.3795,6.1981
40,5.6548,6.4813,6.2901
41,5.7349,6.5748,6.374
42,5.8094,6.6606,6.4504
43,5.8788,6.7392,6.5198
44,5.9432,6.811,6.5826
45,6.0031,6.8765,6.6393
46,6.0587,6.9361,6.6903
47,6.1102,6.9902,6.736
48,6.158,7.0392,6.7768
49,6.2021,7.0833,6.813
50,6.2429,7.123,6.8449
52,6.3153,7.1899,6.897
54,6.3764,7.2421,6.9354
56,6.4275,7.2814,6.9619
58,6.4698,7.3094,6.9782
60,6.5042,7.3275,6.9858
62,6.5315,7.337,6.9858
64,6.5526,7.3389,6.9794
66,6.5681,7.3342,6.9676
68,6.5786,7.3238,6.9512
70,6.5846,7.3082,6.9309
72,6.5866,7.2883,6.9074
74,6.5849,7.2644,6.8812
76,6.5801,7.2372,6.8528
78,6.5723,7.2071,6.8227
80,6.562,7.1745,6.7911
82,6.5493,7.1396,6.7584
84,6.5346,7.1029,6.7249
86,6.518,7.0645,6.6907
88,6.4997,7.0247,6.656
90,6.4799,6.9838,6.6211
92,6.4588,6.9418,6.586
94,6.4365,6.8991,6.5507
96,6.4132,6.8557,6.5155
98,6.3889,6.8117,6.4804
100,6.3637,6.7673,6.4453
110,6.2287,6.5422,6.2731
120,6.084,6.3179,6.1067
130,5.9357,6.0997,5.9464
140,5.7873,5.8901,5.7918
150,5.6412,5.6905,5.6426
160,5.4986,5.5013,5.4987
170,5.3605,5.3224,5.3601
180,5.2273,5.1536,5.2267
190,5.0992,4.9943,5.0986
200,4.9762,4.8439,4.9757
210,4.8583,4.7021,4.8579
220,4.7453,4.568,4.745
230,4.6371,4.4414,4.6369
240,4.5335,4.3215,4.5333
250,4.4342,4.2079,4.4341
260,4.3391,4.1002,4.339
270,4.2479,3.998,4.2478
280,4.1605,3.9009,4.1604
290,4.0766,3.8087,4.0766
300,3.996,3.721,3.996
310,3.9187,3.6373,3.9187
320,3.8443,3.5574,3.8443
330,3.7728,3.4812,3.7728
340,3.704,3.4082,3.704
350,3.6378,3.3384,3.6378
360,3.574,3.2716,3.574
370,3.5124,3.2075,3.5124
380,3.453,3.1459,3.453
390,3.3957,3.0869,3.3957
400,3.3404,3.0301,3.3404
410,3.2869,2.9754,3.2869
420,3.2352,2.9229,3.2352
430,3.1852,2.8722,3.1852
440,3.1368,2.8234,3.1368
450,3.0899,2.7763,3.0899
460,3.0445,2.7308,3.0445
470,3.0005,2.6869,3.0005
480,2.9578,2.6444,2.9578
490,2.9163,2.6034,2.9163
500,2.8761,2.5637,2.8761
510,2.8371,2.5252,2.8371
520,2.7991,2.488,2.7991
530,2.7623,2.4519,2.7623
540,2.7264,2.4169,2.7264
550,2.6915,2.3829,2.6915
560,2.6576,2.35,2.6576
570,2.6245,2.318,2.6245
580,2.5924,2.2869,2.5924
590,2.561,2.2567,2.561
600,2.5305,2.2273,2.5305
610,2.5007,2.1987,2.5007
620,2.4717,2.1709,2.4717
630,2.4433,2.1439,2.4433
640,2.4157,2.1175,2.4157
650,2.3887,2.0919,2.3887
660,2.3624,2.0669,2.3624
670,2.3366,2.0425,2.3366
680,2.3115,2.0187,2.3115
690,2.2869,1.9955,2.2869
700,2.2629,1.9729,2.2629
710,2.2394,1.9508,2.2394
720,2.2165,1.9292,2.2165
730,2.194,1.9081,2.194
740,2.172,1.8876,2.172
750,2.1505,1.8674,2.1505
760,2.1294,1.8478,2.1294
770,2.1088,1.8286,2.1088
780,2.0886,1.8097,2.0886
790,2.0688,1.7914,2.0688
800,2.0494,1.7734,2.0494
810,2.0304,1.7557,2.0304
820,2.0118,1.7385,2.0118
830,1.9935,1.7216,1.9935
840,1.9756,1.7051,1.9756
850,1.958,1.6888,1.958
860,1.9407,1.673,1.9407
870,1.9238,1.6574,1.9238
880,1.9072,1.6421,1.9072
890,1.8909,1.6272,1.8909
900,1.8749,1.6125,1.8749
910,1.8591,1.5981,1.8591
920,1.8437,1.584,1.8437
930,1.8285,1.5701,1.8285
940,1.8136,1.5565,1.8136
950,1.799,1.5432,1.799
960,1.7846,1.53,1.7846
970,1.7704,1.5172,1.7704
980,1.7565,1.5045,1.7565
990,1.7428,1.4921,1.7428
1000,1.7294,1.4799,1.7294
1100,1.6061,1.3686,1.6061
1200,1.5003,1.2738,1.5003
1300,1.4083,1.192,1.4083
1400,1.3277,1.1206,1.3277
1500,1.2563,1.0578,1.2563
1600,1.1927,1.0021,1.1927
1700,1.1355,0.95228,1.1355
1800,1.084,0.90747,1.084
1900,1.0372,0.86693,1.0372
2000,0.9945,0.83006,0.9945
2100,0.9554,0.79639,0.9554
2200,0.91945,0.7655,0.91945
2300,0.88627,0.73706,0.88627
2400,0.85554,0.71078,0.85554
2500,0.82701,0.68643,0.82701
2600,0.80043,0.66378,0.80043
2700,0.77561,0.64267,0.77561
2800,0.75238,0.62294,0.75238
2900,0.73058,0.60446,0.73058
3000,0.71008,0.58711,0.71008
3100,0.69078,0.57078,0.69078
3200,0.67256,0.5554,0.67256
3300,0.65533,0.54087,0.65533
3400,0.63902,0.52712,0.63902
3500,0.62354,0.5141,0.62354
3600,0.60885,0.50174,0.60885
3700,0.59487,0.49,0.59487
3800,0.58156,0.47884,0.58156
3900,0.56887,0.46819,0.56887
4000,0.55675,0.45804,0.55675
4100,0.54517,0.44835,0.54517
4200,0.53409,0.43908,0.53409
4300,0.52348,0.43021,0.52348
4400,0.5133,0.42171,0.5133
4500,0.50354,0.41356,0.50354
4600,0.49417,0.40574,0.49417
4700,0.48515,0.39823,0.48515
4800,0.47648,0.39101,0.47648
4900,0.46814,0.38405,0.46814
5000,0.46009,0.37736,0.46009
