E_BEB(eV),Q_BEB(A^2),Q_DM(A^2),Q_combined(A^2)
11.683,0,0,0
12,0.015571,0.001284,0.001515
13,0.067644,0.019701,0.020509
14,0.12147,0.054126,0.05531
15,0.23591,0.12038,0.1225
16,0.35367,0.20975,0.2125
17,0.51025,0.31605,0.31992
18,0.75986,0.45002,0.45647
19,1.1111,0.62585,0.63638
20,1.4715,0.83988,0.85417
21,1.8668,1.0857,1.1042
22,2.2979,1.3652,1.3881
23,2.7488,1.6763,1.7037
24,3.1973,2.0128,2.0445
25,3.6395,2.3682,2.4036
26,4.0798,2.7414,2.7802
27,4.5056,3.1203,3.1623
28,4.916,3.5002,3.5448
29,5.3107,3.8773,3.9244
30,5.6951,4.2533,4.3028
31,6.0654,4.6241,4.6756
32,6.4206,4.9865,5.0399
33,6.7608,5.3391,5.3943
34,7.0866,5.6809,5.7377
35,7.3984,6.0112,6.0697
36,7.6967,6.3297,6.3897
37,7.9819,6.636,6.6975
38,8.2547,6.9301,6.9931
39,8.5155,7.2119,7.2766
40,8.7648,7.4817,7.548
41,9.0032,7.7395,7.8075
42,9.2332,7.9876,8.0573
43,9.4592,8.2304,8.3021
44,9.6808,8.4686,8.5422
45,9.8964,8.7008,8.7763
46,10.1035,8.9233,9.0009
47,10.3024,9.1362,9.216
48,10.4935,9.3396,9.4218
49,10.677,9.5337,9.6185
50,10.8531,9.7189,9.8064
52,11.1847,10.0635,10.1571
54,11.4903,10.3757,10.4763
56,11.7718,10.6578,10.7664
58,12.0311,10.9121,11.0299
60,12.2698,11.1406,11.2689
62,12.4896,11.3456,11.4857
64,12.6917,11.5288,11.6823
66,12.8776,11.692,11.8606
68,13.0484,11.8369,12.0222
70,13.2053,11.965,12.1689
72,13.3491,12.0777,12.302
74,13.481,12.1762,12.4231
76,13.6017,12.2618,12.5334
78,13.712,12.3355,12.634
80,13.8126,12.3982,12.726
82,13.9042,12.4509,12.8104
84,13.9874,12.4945,12.8881
86,14.0628,12.5297,12.9599
88,14.131,12.5571,13.0264
90,14.1923,12.5775,13.0884
92,14.2472,12.5913,13.1464
94,14.2962,12.5992,13.2009
96,14.3397,12.6017,13.2523
98,14.378,12.5991,13.3011
100,14.4114,12.592,13.3475
110,14.5156,12.4997,13.5508
120,14.5368,12.3388,13.7139
130,14.4974,12.1344,13.8344
140,14.4138,11.9036,13.905
150,14.298,11.6578,13.9227
160,14.1587,11.4048,13.8902
170,14.0025,11.1499,13.8149
180,13.8345,10.8967,13.7056
190,13.6584,10.6476,13.5709
200,13.477,10.4041,13.4183
210,13.2927,10.1674,13.2535
220,13.1071,9.9379,13.081
230,12.9215,9.716,12.9042
240,12.7368,9.5018,12.7255
250,12.5539,9.2953,12.5465
260,12.3734,9.0964,12.3685
270,12.1955,8.9049,12.1923
280,12.0208,8.7205,12.0187
290,11.8493,8.5432,11.8479
300,11.6813,8.3727,11.6804
310,11.5168,8.2086,11.5162
320,11.3559,8.0506,11.3555
330,11.1986,7.8984,11.1984
340,11.045,7.7517,11.0448
350,10.8949,7.6103,10.8948
360,10.7484,7.4739,10.7483
370,10.6054,7.3423,10.6053
380,10.4658,7.2153,10.4657
390,10.3295,7.0926,10.3295
400,10.1966,6.9741,10.1966
410,10.0668,6.8595,10.0668
420,9.9402,6.7487,9.9402
430,9.8166,6.6415,9.8166
440,9.6959,6.5378,9.6959
450,9.5781,6.4373,9.5781
460,9.4631,6.3399,9.4631
470,9.3508,6.2455,9.3508
480,9.2412,6.154,9.2412
490,9.134,6.0652,9.134
500,9.0293,5.9791,9.0293
510,8.9271,5.8954,8.9271
520,8.8271,5.8141,8.8271
530,8.7294,5.7352,8.7294
540,8.6338,5.6584,8.6338
550,8.5404,5.5838,8.5404
560,8.449,5.5111,8.449
570,8.3596,5.4405,8.3596
580,8.2722,5.3717,8.2722
590,8.1866,5.3047,8.1866
600,8.1028,5.2394,8.1028
610,8.0207,5.1758,8.0207
620,7.9404,5.1137,7.9404
630,7.8617,5.0533,7.8617
640,7.7846,4.9943,7.7846
650,7.7091,4.9367,7.7091
660,7.6351,4.8805,7.6351
670,7.5626,4.8257,7.5626
680,7.4915,4.7721,7.4915
690,7.4217,4.7198,7.4217
700,7.3534,4.6688,7.3534
710,7.2863,4.6188,7.2863
720,7.2205,4.57,7.2205
730,7.1559,4.5223,7.1559
740,7.0926,4.4756,7.0926
750,7.0304,4.4299,7.0304
760,6.9693,4.3852,6.9693
770,6.9094,4.3415,6.9094
780,6.8505,4.2986,6.8505
790,6.7927,4.2566,6.7927
800,6.7359,4.2155,6.7359
810,6.68,4.1753,6.68
820,6.6252,4.1358,6.6252
830,6.5713,4.0971,6.5713
840,6.5183,4.0592,6.5183
850,6.4663,4.022,6.4663
860,6.415,3.9856,6.415
870,6.3647,3.9498,6.3647
880,6.3152,3.9147,6.3152
890,6.2665,3.8802,6.2665
900,6.2185,3.8464,6.2185
910,6.1714,3.8132,6.1714
920,6.125,3.7806,6.125
930,6.0793,3.7486,6.0793
940,6.0344,3.7172,6.0344
950,5.9901,3.6863,5.9901
960,5.9465,3.656,5.9465
970,5.9037,3.6262,5.9037
980,5.8614,3.5969,5.8614
990,5.8198,3.5681,5.8198
1000,5.7788,3.5397,5.7788
1100,5.4004,3.2807,5.4004
1200,5.0711,3.059,5.0711
1300,4.7819,2.8668,4.7819
1400,4.5258,2.6986,4.5258
1500,4.2973,2.5502,4.2973
1600,4.0921,2.4181,4.0921
1700,3.9068,2.2997,3.9068
1800,3.7386,2.193,3.7386
1900,3.5851,2.0964,3.5851
2000,3.4445,2.0083,3.4445
2100,3.3152,1.9278,3.3152
2200,3.1958,1.8539,3.1958
2300,3.0852,1.7857,3.0852
2400,2.9826,1.7226,2.9826
2500,2.8869,1.6641,2.8869
2600,2.7976,1.6097,2.7976
2700,2.7139,1.5589,2.7139
2800,2.6355,1.5114,2.6355
2900,2.5617,1.4669,2.5617
3000,2.4922,1.4251,2.4922
3100,2.4266,1.3857,2.4266
3200,2.3646,1.3486,2.3646
3300,2.3058,1.3136,2.3058
3400,2.2501,1.2804,2.2501
3500,2.1972,1.2489,2.1972
3600,2.1469,1.219,2.1469
3700,2.099,1.1907,2.099
3800,2.0533,1.1636,2.0533
3900,2.0096,1.1379,2.0096
4000,1.9679,1.1133,1.9679
4100,1.928,1.0899,1.928
4200,1.8898,1.0674,1.8898
4300,1.8531,1.0459,1.8531
4400,1.818,1.0254,1.818
4500,1.7842,1.0056,1.7842
4600,1.7518,0.98666,1.7518
4700,1.7205,0.96845,1.7205
4800,1.6905,0.95093,1.6905
4900,1.6615,0.93408,1.6615
5000,1.6335,0.91785,1.6335
