E_BEB(eV),Q_BEB(A^2),Q_DM(A^2),Q_combined(A^2)
12.1656,0,0,0
13,0.037486,0.008154,0.0087105
14,0.084967,0.032043,0.033088
15,0.16445,0.070661,0.07259
16,0.2857,0.13327,0.13654
17,0.45244,0.22002,0.2252
18,0.72827,0.34177,0.35073
19,1.1028,0.51084,0.52514
20,1.4975,0.72555,0.74495
21,1.9104,0.97519,0.99966
22,2.3619,1.2588,1.2888
23,2.8378,1.5757,1.6115
24,3.3087,1.9184,1.9594
25,3.7839,2.2844,2.3305
26,4.2449,2.6633,2.7139
27,4.694,3.0512,3.1058
28,5.1317,3.445,3.5033
29,5.5595,3.8431,3.9049
30,5.9709,4.2379,4.3028
31,6.366,4.6265,4.6943
32,6.7449,5.007,5.0774
33,7.108,5.3778,5.4507
34,7.4558,5.7377,5.8131
35,7.7886,6.0862,6.1638
36,8.1071,6.4225,6.5023
37,8.4118,6.7464,6.8285
38,8.7035,7.0581,7.1424
39,8.9852,7.3611,7.4477
40,9.2548,7.652,7.7409
41,9.5128,7.9309,8.022
42,9.7608,8.1988,8.2923
43,10.0047,8.4614,8.5575
44,10.242,8.7172,8.8158
45,10.4743,8.9681,9.0694
46,10.6977,9.2094,9.3134
47,10.9124,9.4407,9.5474
48,11.1187,9.662,9.7717
49,11.3169,9.8735,9.9865
50,11.5073,10.0756,10.192
52,11.8657,10.4525,10.5763
54,12.1963,10.7949,10.9273
56,12.5011,11.1053,11.2473
58,12.782,11.386,11.5388
60,13.0408,11.6392,11.8042
62,13.2792,11.8671,12.0458
64,13.4987,12.0715,12.2655
66,13.7007,12.2545,12.4655
68,13.8864,12.4177,12.6475
70,14.0571,12.5628,12.8132
72,14.2139,12.6911,12.9642
74,14.3577,12.8041,13.102
76,14.4894,12.903,13.2279
78,14.6099,12.9889,13.3432
80,14.72,13.063,13.4489
82,14.8204,13.1261,13.5462
84,14.9117,13.1792,13.6359
86,14.9946,13.2231,13.7188
88,15.0696,13.2586,13.7959
90,15.1372,13.2862,13.8677
92,15.198,13.3067,13.9348
94,15.2523,13.3207,13.9979
96,15.3006,13.3286,14.0573
98,15.3434,13.331,14.1135
100,15.3808,13.3283,14.1669
110,15.5,13.2519,14.3991
120,15.5292,13.0985,14.584
130,15.4926,12.8958,14.7221
140,15.4079,12.6624,14.8078
150,15.288,12.4109,14.8379
160,15.1424,12.1501,14.8148
170,14.9783,11.8858,14.7452
180,14.801,11.6223,14.6381
190,14.6148,11.3621,14.5023
200,14.4228,11.1072,14.3459
210,14.2273,10.8587,14.175
220,14.0301,10.6174,13.9949
230,13.8328,10.3837,13.8091
240,13.6364,10.1579,13.6205
250,13.4417,9.9399,13.4311
260,13.2494,9.7296,13.2423
270,13.0599,9.527,13.0552
280,12.8736,9.3318,12.8705
290,12.6908,9.1439,12.6887
300,12.5115,8.9632,12.5101
310,12.336,8.7891,12.3351
320,12.1642,8.6214,12.1636
330,11.9963,8.4597,11.9959
340,11.8322,8.3039,11.832
350,11.672,8.1536,11.6718
360,11.5154,8.0085,11.5153
370,11.3626,7.8686,11.3626
380,11.2135,7.7334,11.2134
390,11.0678,7.6028,11.0678
400,10.9257,7.4766,10.9257
410,10.787,7.3545,10.787
420,10.6516,7.2365,10.6516
430,10.5194,7.1222,10.5194
440,10.3904,7.0116,10.3904
450,10.2644,6.9044,10.2644
460,10.1414,6.8006,10.1414
470,10.0213,6.6999,10.0213
480,9.9039,6.6022,9.9039
490,9.7893,6.5075,9.7893
500,9.6773,6.4155,9.6773
510,9.5679,6.3262,9.5679
520,9.4609,6.2394,9.4609
530,9.3563,6.1551,9.3563
540,9.2541,6.0731,9.2541
550,9.1541,5.9933,9.1541
560,9.0563,5.9158,9.0563
570,8.9606,5.8403,8.9606
580,8.867,5.7667,8.867
590,8.7753,5.6951,8.7753
600,8.6856,5.6254,8.6856
610,8.5978,5.5574,8.5978
620,8.5118,5.4911,8.5118
630,8.4275,5.4264,8.4275
640,8.345,5.3633,8.345
650,8.2641,5.3018,8.2641
660,8.1849,5.2417,8.1849
670,8.1072,5.183,8.1072
680,8.0311,5.1257,8.0311
690,7.9564,5.0698,7.9564
700,7.8832,5.0152,7.8832
710,7.8113,4.9618,7.8113
720,7.7409,4.9096,7.7409
730,7.6717,4.8586,7.6717
740,7.6039,4.8086,7.6039
750,7.5372,4.7598,7.5372
760,7.4719,4.712,7.4719
770,7.4076,4.6651,7.4076
780,7.3446,4.6193,7.3446
790,7.2826,4.5744,7.2826
800,7.2218,4.5304,7.2218
810,7.162,4.4873,7.162
820,7.1033,4.4451,7.1033
830,7.0455,4.4037,7.0455
840,6.9888,4.3631,6.9888
850,6.933,4.3233,6.933
860,6.8781,4.2843,6.8781
870,6.8242,4.246,6.8242
880,6.7711,4.2084,6.7711
890,6.7189,4.1715,6.7189
900,6.6676,4.1353,6.6676
910,6.6171,4.0998,6.6171
920,6.5674,4.0649,6.5674
930,6.5184,4.0306,6.5184
940,6.4703,3.997,6.4703
950,6.4229,3.9639,6.4229
960,6.3762,3.9314,6.3762
970,6.3302,3.8995,6.3302
980,6.285,3.8681,6.285
990,6.2404,3.8372,6.2404
1000,6.1965,3.8069,6.1965
1100,5.7909,3.5293,5.7909
1200,5.4381,3.2916,5.4381
1300,5.1281,3.0855,5.1281
1400,4.8536,2.9051,4.8536
1500,4.6087,2.7458,4.6087
1600,4.3887,2.6039,4.3887
1700,4.1901,2.4768,4.1901
1800,4.0097,2.3623,4.0097
1900,3.8452,2.2584,3.8452
2000,3.6944,2.1638,3.6944
2100,3.5558,2.0773,3.5558
2200,3.4278,1.9978,3.4278
2300,3.3092,1.9245,3.3092
2400,3.1991,1.8567,3.1991
2500,3.0966,1.7938,3.0966
2600,3.0008,1.7353,3.0008
2700,2.9111,1.6807,2.9111
2800,2.827,1.6296,2.827
2900,2.7478,1.5817,2.7478
3000,2.6733,1.5367,2.6733
3100,2.603,1.4943,2.603
3200,2.5365,1.4544,2.5365
3300,2.4735,1.4166,2.4735
3400,2.4137,1.3809,2.4137
3500,2.357,1.347,2.357
3600,2.303,1.3149,2.303
3700,2.2516,1.2843,2.2516
3800,2.2026,1.2553,2.2026
3900,2.1558,1.2275,2.1558
4000,2.1111,1.2011,2.1111
4100,2.0683,1.1758,2.0683
4200,2.0273,1.1516,2.0273
4300,1.988,1.1285,1.988
4400,1.9503,1.1063,1.9503
4500,1.914,1.0851,1.914
4600,1.8792,1.0646,1.8792
4700,1.8457,1.045,1.8457
4800,1.8135,1.0261,1.8135
4900,1.7824,1.008,1.7824
5000,1.7525,0.99049,1.7525
