E_BEB(eV),Q_BEB(A^2),Q_DM(A^2),Q_combined(A^2)
10.169,0,0,0
11,0.20499,0.03658,0.045355
12,0.46603,0.15726,0.17412
13,0.76416,0.33244,0.35713
14,1.1652,0.57612,0.6114
15,1.5539,0.8731,0.9158
16,1.923,1.1997,1.2472
17,2.2692,1.5394,1.5896
18,2.6113,1.895,1.9466
19,2.9686,2.2857,2.3371
20,3.3067,2.6777,2.7273
21,3.6295,3.0656,3.1121
22,3.9435,3.4521,3.4945
23,4.2376,3.8261,3.8633
24,4.5125,4.1848,4.2157
25,4.7689,4.5264,4.5504
26,5.0111,4.8538,4.87
27,5.2467,5.1759,5.1835
28,5.4732,5.4905,5.4885
29,5.6856,5.7886,5.7765
30,5.8845,6.0699,6.0471
31,6.0706,6.3346,6.3008
32,6.2447,6.5832,6.5379
33,6.4075,6.8162,6.7592
34,6.5596,7.0343,6.9652
35,6.7017,7.2381,7.1567
36,6.8344,7.4283,7.3343
37,6.9582,7.6056,7.4989
38,7.0738,7.7706,7.6509
39,7.1815,7.9241,7.7913
40,7.282,8.0667,7.9206
41,7.3756,8.1989,8.0394
42,7.4627,8.3215,8.1484
43,7.5438,8.4349,8.2481
44,7.6192,8.5396,8.3392
45,7.6893,8.6363,8.422
46,7.7544,8.7254,8.4971
47,7.8147,8.8072,8.5651
48,7.8706,8.8824,8.6262
49,7.9223,8.9512,8.681
50,7.9701,9.014,8.7298
52,8.0547,9.1232,8.8111
54,8.1262,9.2126,8.8727
56,8.1859,9.2844,8.9171
58,8.2352,9.3408,8.9465
60,8.2752,9.3835,8.9629
62,8.3068,9.4141,8.968
64,8.331,9.434,8.9633
66,8.3486,9.4445,8.9503
68,8.3602,9.4466,8.9301
70,8.3664,9.4413,8.9039
72,8.3679,9.4295,8.8726
74,8.365,9.4119,8.8372
76,8.3583,9.3893,8.7983
78,8.3481,9.3621,8.7566
80,8.3348,9.331,8.7128
82,8.3187,9.2964,8.6674
84,8.3001,9.2588,8.6207
86,8.2792,9.2185,8.5731
88,8.2564,9.1758,8.525
90,8.2317,9.1312,8.4765
92,8.2054,9.0847,8.428
94,8.1776,9.0368,8.3796
96,8.1486,8.9876,8.3313
98,8.1184,8.9372,8.2834
100,8.0872,8.8859,8.2359
110,7.9196,8.6205,8.0057
120,7.7402,8.3493,7.7882
130,7.5561,8.0807,7.5822
140,7.3716,7.8195,7.3855
150,7.1897,7.5682,7.1969
160,7.012,7.3281,7.0158
170,6.8397,7.0996,6.8415
180,6.6732,6.8828,6.6741
190,6.5129,6.6772,6.5133
200,6.3588,6.4824,6.359
210,6.2109,6.2979,6.211
220,6.0691,6.1231,6.0691
230,5.9331,5.9574,5.9331
240,5.8027,5.8003,5.8027
250,5.6778,5.651,5.6777
260,5.5579,5.5093,5.5579
270,5.4429,5.3745,5.4429
280,5.3326,5.2462,5.3326
290,5.2266,5.1243,5.2266
300,5.1249,5.0081,5.1249
310,5.027,4.8973,5.027
320,4.9329,4.7913,4.9329
330,4.8424,4.6901,4.8424
340,4.7552,4.5931,4.7552
350,4.6712,4.5003,4.6712
360,4.5903,4.4112,4.5903
370,4.5122,4.3258,4.5122
380,4.4368,4.2438,4.4368
390,4.364,4.1649,4.364
400,4.2937,4.0891,4.2937
410,4.2257,4.0161,4.2257
420,4.1599,3.9458,4.1599
430,4.0963,3.878,4.0963
440,4.0347,3.8127,4.0347
450,3.975,3.7496,3.975
460,3.9171,3.6887,3.9171
470,3.861,3.6298,3.861
480,3.8066,3.5729,3.8066
490,3.7538,3.5179,3.7538
500,3.7025,3.4646,3.7025
510,3.6527,3.413,3.6527
520,3.6043,3.363,3.6043
530,3.5572,3.3145,3.5572
540,3.5114,3.2675,3.5114
550,3.4669,3.2218,3.4669
560,3.4235,3.1775,3.4235
570,3.3813,3.1345,3.3813
580,3.3402,3.0927,3.3402
590,3.3001,3.052,3.3001
600,3.261,3.0125,3.261
610,3.223,2.974,3.223
620,3.1858,2.9366,3.1858
630,3.1496,2.9002,3.1496
640,3.1142,2.8647,3.1142
650,3.0797,2.8301,3.0797
660,3.0459,2.7964,3.0459
670,3.013,2.7635,3.013
680,2.9808,2.7315,2.9808
690,2.9493,2.7002,2.9493
700,2.9186,2.6697,2.9186
710,2.8885,2.6399,2.8885
720,2.859,2.6108,2.859
730,2.8303,2.5823,2.8303
740,2.8021,2.5546,2.8021
750,2.7745,2.5274,2.7745
760,2.7475,2.5009,2.7475
770,2.721,2.4749,2.721
780,2.6951,2.4495,2.6951
790,2.6697,2.4247,2.6697
800,2.6448,2.4004,2.6448
810,2.6204,2.3766,2.6204
820,2.5965,2.3533,2.5965
830,2.5731,2.3304,2.5731
840,2.55,2.3081,2.55
850,2.5275,2.2862,2.5275
860,2.5053,2.2647,2.5053
870,2.4836,2.2437,2.4836
880,2.4623,2.2231,2.4623
890,2.4413,2.2028,2.4413
900,2.4208,2.183,2.4208
910,2.4006,2.1635,2.4006
920,2.3807,2.1444,2.3807
930,2.3612,2.1257,2.3612
940,2.3421,2.1073,2.3421
950,2.3232,2.0892,2.3232
960,2.3047,2.0715,2.3047
970,2.2866,2.0541,2.2866
980,2.2687,2.037,2.2687
990,2.2511,2.0201,2.2511
1000,2.2338,2.0036,2.2338
1100,2.0752,1.853,2.0752
1200,1.939,1.7246,1.939
1300,1.8206,1.6138,1.8206
1400,1.7167,1.5171,1.7167
1500,1.6247,1.432,1.6247
1600,1.5426,1.3564,1.5426
1700,1.4689,1.2888,1.4689
1800,1.4024,1.2281,1.4024
1900,1.342,1.1731,1.342
2000,1.2869,1.1231,1.2869
2100,1.2364,1.0774,1.2364
2200,1.1899,1.0355,1.1899
2300,1.1471,0.99691,1.1471
2400,1.1074,0.96127,1.1074
2500,1.0705,0.92823,1.0705
2600,1.0362,0.89751,1.0362
2700,1.0041,0.86888,1.0041
2800,0.97404,0.84212,0.97404
2900,0.94586,0.81705,0.94586
3000,0.91936,0.79351,0.91936
3100,0.89439,0.77137,0.89439
3200,0.87083,0.75051,0.87083
3300,0.84855,0.7308,0.84855
3400,0.82745,0.71216,0.82745
3500,0.80744,0.69451,0.80744
3600,0.78843,0.67776,0.78843
3700,0.77034,0.66184,0.77034
3800,0.75312,0.64669,0.75312
3900,0.7367,0.63227,0.7367
4000,0.72102,0.6185,0.72102
4100,0.70603,0.60536,0.70603
4200,0.6917,0.5928,0.6917
4300,0.67796,0.58078,0.67796
4400,0.6648,0.56926,0.6648
4500,0.65216,0.55822,0.65216
4600,0.64003,0.54762,0.64003
4700,0.62836,0.53744,0.62836
4800,0.61714,0.52765,0.61714
4900,0.60633,0.51823,0.60633
5000,0.59592,0.50917,0.59592
