E_BEB(eV),Q_BEB(A^2),Q_DM(A^2),Q_combined(A^2)
9.6335,0,0,0
10,0.1055,0.015012,0.019056
11,0.53105,0.16357,0.18083
12,0.96322,0.42132,0.44806
13,1.3804,0.73965,0.77286
14,1.8673,1.1341,1.174
15,2.4229,1.6118,1.6582
16,2.9759,2.1229,2.1741
17,3.5536,2.6893,2.7438
18,4.1336,3.2884,3.3444
19,4.6846,3.8926,3.9476
20,5.2229,4.5032,4.5556
21,5.7302,5.1018,5.1499
22,6.2195,5.6927,5.7349
23,6.6804,6.2645,6.2995
24,7.1112,6.8113,6.8378
25,7.515,7.3329,7.3497
26,7.9105,7.8492,7.8551
27,8.2824,8.3418,8.3358
28,8.6305,8.8077,8.7888
29,8.956,9.2466,9.2142
30,9.2636,9.6634,9.6168
31,9.5553,10.0606,9.9989
32,9.8282,10.4335,10.3561
33,10.0835,10.7827,10.6892
34,10.3221,11.1093,10.9992
35,10.5452,11.4142,11.2872
36,10.7535,11.6985,11.5541
37,10.948,11.9632,11.8012
38,11.1295,12.2095,12.0294
39,11.2989,12.4381,12.2398
40,11.4568,12.6503,12.4335
41,11.604,12.8469,12.6114
42,11.7411,13.0288,12.7744
43,11.8688,13.1969,12.9233
44,11.9875,13.352,13.0592
45,12.0979,13.4948,13.1827
46,12.2004,13.6261,13.2945
47,12.2956,13.7466,13.3955
48,12.3837,13.857,13.4863
49,12.4653,13.9578,13.5675
50,12.5407,14.0496,13.6397
52,12.6744,14.2085,13.7595
54,12.7875,14.3375,13.8498
56,12.8821,14.4402,13.9144
58,12.9602,14.5197,13.9567
60,13.0237,14.5786,13.9795
62,13.0741,14.6194,13.9856
64,13.1128,14.6442,13.9773
66,13.1411,14.6548,13.9567
68,13.1599,14.6529,13.9257
70,13.1703,14.64,13.886
72,13.1731,14.6173,13.8391
74,13.1691,14.5861,13.7862
76,13.1591,14.5472,13.7284
78,13.1435,14.5018,13.6668
80,13.1231,14.4504,13.6023
82,13.0982,14.3939,13.5354
84,13.0693,14.3329,13.4669
86,13.0369,14.268,13.3972
88,13.0013,14.1997,13.3269
90,12.9628,14.1283,13.2561
92,12.9218,14.0545,13.1852
94,12.8785,13.9784,13.1145
96,12.8331,13.9004,13.044
98,12.7859,13.8208,12.9739
100,12.7371,13.7399,12.9043
110,12.4746,13.3229,12.5648
120,12.1931,12.8988,12.2398
130,11.9039,12.4801,11.9273
140,11.6141,12.0738,11.6254
150,11.3281,11.6834,11.3333
160,11.0486,11.3109,11.0509
170,10.7774,10.9567,10.7784
180,10.5154,10.6207,10.5158
190,10.2631,10.3024,10.2631
200,10.0205,10.0011,10.0205
210,9.7876,9.7157,9.7876
220,9.5642,9.4455,9.5642
230,9.35,9.1894,9.35
240,9.1447,8.9465,9.1446
250,8.9478,8.7159,8.9477
260,8.7589,8.497,8.7589
270,8.5777,8.2888,8.5777
280,8.4039,8.0907,8.4039
290,8.2369,7.9026,8.2369
300,8.0765,7.7233,8.0765
310,7.9223,7.5522,7.9223
320,7.774,7.3888,7.774
330,7.6313,7.2326,7.6313
340,7.4939,7.083,7.4939
350,7.3616,6.9398,7.3616
360,7.2339,6.8025,7.2339
370,7.1108,6.6707,7.1108
380,6.992,6.5442,6.992
390,6.8773,6.4226,6.8773
400,6.7664,6.3057,6.7664
410,6.6593,6.1932,6.6593
420,6.5556,6.0848,6.5556
430,6.4553,5.9803,6.4553
440,6.3581,5.8795,6.3581
450,6.264,5.7823,6.264
460,6.1728,5.6883,6.1728
470,6.0844,5.5976,6.0844
480,5.9986,5.5099,5.9986
490,5.9154,5.425,5.9154
500,5.8345,5.3428,5.8345
510,5.756,5.2633,5.756
520,5.6796,5.1862,5.6796
530,5.6054,5.1114,5.6054
540,5.5333,5.0389,5.5333
550,5.463,4.9686,5.463
560,5.3947,4.9003,5.3947
570,5.3281,4.8339,5.3281
580,5.2633,4.7695,5.2633
590,5.2002,4.7068,5.2002
600,5.1386,4.6459,5.1386
610,5.0786,4.5866,5.0786
620,5.02,4.5289,5.02
630,4.9629,4.4727,4.9629
640,4.9071,4.418,4.9071
650,4.8527,4.3647,4.8527
660,4.7995,4.3127,4.7995
670,4.7476,4.2621,4.7476
680,4.6968,4.2127,4.6968
690,4.6472,4.1645,4.6472
700,4.5987,4.1174,4.5987
710,4.5513,4.0715,4.5513
720,4.5049,4.0266,4.5049
730,4.4595,3.9828,4.4595
740,4.4151,3.94,4.4151
750,4.3716,3.8981,4.3716
760,4.329,3.8572,4.329
770,4.2873,3.8172,4.2873
780,4.2465,3.7781,4.2465
790,4.2064,3.7398,4.2064
800,4.1672,3.7023,4.1672
810,4.1288,3.6656,4.1288
820,4.0911,3.6297,4.0911
830,4.0541,3.5945,4.0541
840,4.0178,3.5601,4.0178
850,3.9822,3.5263,3.9822
860,3.9473,3.4932,3.9473
870,3.9131,3.4608,3.9131
880,3.8795,3.429,3.8795
890,3.8464,3.3978,3.8464
900,3.814,3.3672,3.814
910,3.7822,3.3372,3.7822
920,3.7509,3.3078,3.7509
930,3.7202,3.2789,3.7202
940,3.69,3.2505,3.69
950,3.6603,3.2227,3.6603
960,3.6312,3.1953,3.6312
970,3.6025,3.1685,3.6025
980,3.5743,3.1421,3.5743
990,3.5466,3.1162,3.5466
1000,3.5193,3.0907,3.5193
1100,3.2694,2.8585,3.2694
1200,3.0547,2.6606,3.0547
1300,2.8681,2.4897,2.8681
1400,2.7043,2.3406,2.7043
1500,2.5593,2.2094,2.5593
1600,2.43,2.0929,2.43
1700,2.3139,1.9887,2.3139
1800,2.209,1.895,2.209
1900,2.1138,1.8102,2.1138
2000,2.027,1.7331,2.027
2100,1.9475,1.6626,1.9475
2200,1.8743,1.598,1.8743
2300,1.8068,1.5385,1.8068
2400,1.7442,1.4836,1.7442
2500,1.6861,1.4326,1.6861
2600,1.632,1.3852,1.632
2700,1.5814,1.3411,1.5814
2800,1.5341,1.2998,1.5341
2900,1.4897,1.2611,1.4897
3000,1.448,1.2248,1.448
3100,1.4086,1.1907,1.4086
3200,1.3715,1.1585,1.3715
3300,1.3364,1.1281,1.3364
3400,1.3032,1.0993,1.3032
3500,1.2716,1.0721,1.2716
3600,1.2417,1.0462,1.2417
3700,1.2132,1.0217,1.2132
3800,1.1861,0.99833,1.1861
3900,1.1602,0.97607,1.1602
4000,1.1355,0.95484,1.1355
4100,1.1119,0.93456,1.1119
4200,1.0893,0.91518,1.0893
4300,1.0677,0.89663,1.0677
4400,1.0469,0.87886,1.0469
4500,1.027,0.86183,1.027
4600,1.0079,0.84547,1.0079
4700,0.98955,0.82977,0.98955
4800,0.97187,0.81466,0.97187
4900,0.95485,0.80013,0.95485
5000,0.93846,0.78614,0.93846
