E_BEB(eV),Q_BEB(A^2),Q_DM(A^2),Q_combined(A^2)
13.0876,0,0,0
14,0.03627,0.004726,0.0057829
15,0.079101,0.018573,0.020677
16,0.15182,0.043023,0.046947
17,0.22534,0.078231,0.083736
18,0.32972,0.12414,0.13212
19,0.45655,0.18533,0.19626
20,0.58688,0.25883,0.27254
21,0.73623,0.34495,0.3619
22,0.89174,0.44196,0.46218
23,1.0513,0.54863,0.57206
24,1.207,0.66217,0.68851
25,1.3752,0.79413,0.82326
26,1.5386,0.93072,0.96232
27,1.6967,1.0692,1.103
28,1.8491,1.2077,1.2435
29,1.9958,1.345,1.3827
30,2.1365,1.4801,1.5195
31,2.2715,1.6122,1.6533
32,2.4007,1.7409,1.7834
33,2.5244,1.8656,1.9096
34,2.6427,1.9861,2.0316
35,2.7557,2.1023,2.1492
36,2.8638,2.214,2.2623
37,2.967,2.3212,2.371
38,3.0656,2.4239,2.4751
39,3.1598,2.5221,2.5748
40,3.2498,2.616,2.6702
41,3.3358,2.7055,2.7614
42,3.4184,2.7914,2.8489
43,3.501,2.8771,2.9364
44,3.5802,2.9593,3.0204
45,3.6561,3.0378,3.1008
46,3.7288,3.1128,3.1776
47,3.7986,3.1842,3.2511
48,3.8654,3.2522,3.3213
49,3.9295,3.3169,3.3883
50,3.9909,3.3784,3.4523
52,4.106,3.4924,3.5715
54,4.2118,3.595,3.68
56,4.3089,3.6872,3.7786
58,4.3979,3.7697,3.8683
60,4.4796,3.8435,3.9499
62,4.5546,3.9092,4.0242
64,4.6232,3.9675,4.0919
66,4.6861,4.019,4.1536
68,4.7436,4.0644,4.21
70,4.7962,4.1041,4.2615
72,4.8442,4.1386,4.3088
74,4.888,4.1684,4.3523
76,4.9279,4.1939,4.3923
78,4.9641,4.2155,4.4293
80,4.997,4.2335,4.4636
82,5.0267,4.2481,4.4955
84,5.0534,4.2598,4.5253
86,5.0775,4.2687,4.5532
88,5.099,4.2751,4.5794
90,5.1182,4.2792,4.6042
92,5.1351,4.2812,4.6276
94,5.15,4.2812,4.6497
96,5.163,4.2795,4.6709
98,5.1742,4.2762,4.691
100,5.1837,4.2715,4.7102
110,5.2099,4.2297,4.7941
120,5.2077,4.1665,4.8594
130,5.1852,4.0902,4.9055
140,5.1479,4.0061,4.9313
150,5.1,3.9181,4.9372
160,5.0446,3.8284,4.925
170,4.9838,3.7388,4.8975
180,4.9193,3.6504,4.858
190,4.8525,3.5638,4.8093
200,4.7843,3.4796,4.7541
210,4.7154,3.398,4.6945
220,4.6464,3.3191,4.632
230,4.5777,3.243,4.5678
240,4.5097,3.1698,4.5028
250,4.4425,3.0993,4.4378
260,4.3763,3.0315,4.3731
270,4.3114,2.9664,4.3092
280,4.2476,2.9038,4.2462
290,4.1853,2.8437,4.1842
300,4.1242,2.7859,4.1235
310,4.0646,2.7305,4.0641
320,4.0064,2.6771,4.006
330,3.9495,2.6257,3.9493
340,3.894,2.5763,3.8939
350,3.8399,2.5286,3.8398
360,3.7871,2.4827,3.7871
370,3.7357,2.4385,3.7356
380,3.6855,2.3958,3.6855
390,3.6366,2.3546,3.6366
400,3.5889,2.3148,3.5888
410,3.5423,2.2763,3.5423
420,3.497,2.2392,3.497
430,3.4527,2.2032,3.4527
440,3.4096,2.1685,3.4096
450,3.3674,2.1348,3.3674
460,3.3264,2.1022,3.3264
470,3.2863,2.0707,3.2863
480,3.2471,2.04,3.2471
490,3.2089,2.0104,3.2089
500,3.1716,1.9816,3.1716
510,3.1351,1.9536,3.1351
520,3.0995,1.9265,3.0995
530,3.0647,1.9001,3.0647
540,3.0307,1.8745,3.0307
550,2.9975,1.8496,2.9975
560,2.965,1.8254,2.965
570,2.9332,1.8019,2.9332
580,2.9022,1.779,2.9022
590,2.8718,1.7567,2.8718
600,2.842,1.7349,2.842
610,2.8129,1.7138,2.8129
620,2.7844,1.6931,2.7844
630,2.7565,1.673,2.7565
640,2.7291,1.6534,2.7291
650,2.7024,1.6342,2.7024
660,2.6761,1.6156,2.6761
670,2.6504,1.5973,2.6504
680,2.6253,1.5795,2.6253
690,2.6006,1.5621,2.6006
700,2.5764,1.5452,2.5764
710,2.5526,1.5286,2.5526
720,2.5293,1.5124,2.5293
730,2.5065,1.4965,2.5065
740,2.4841,1.481,2.4841
750,2.4621,1.4658,2.4621
760,2.4405,1.451,2.4405
770,2.4193,1.4364,2.4193
780,2.3985,1.4222,2.3985
790,2.3781,1.4083,2.3781
800,2.358,1.3946,2.358
810,2.3383,1.3813,2.3383
820,2.3189,1.3682,2.3189
830,2.2999,1.3553,2.2999
840,2.2812,1.3428,2.2812
850,2.2628,1.3304,2.2628
860,2.2448,1.3183,2.2448
870,2.227,1.3065,2.227
880,2.2095,1.2948,2.2095
890,2.1923,1.2834,2.1923
900,2.1754,1.2722,2.1754
910,2.1588,1.2612,2.1588
920,2.1425,1.2504,2.1425
930,2.1264,1.2398,2.1264
940,2.1105,1.2293,2.1105
950,2.0949,1.2191,2.0949
960,2.0796,1.209,2.0796
970,2.0645,1.1992,2.0645
980,2.0496,1.1894,2.0496
990,2.0349,1.1799,2.0349
1000,2.0205,1.1705,2.0205
1100,1.8873,1.0847,1.8873
1200,1.7715,1.0113,1.7715
1300,1.6699,0.94765,1.6699
1400,1.58,0.892,1.58
1500,1.4998,0.84287,1.4998
1600,1.4279,0.79917,1.4279
1700,1.363,0.76002,1.363
1800,1.304,0.72475,1.304
1900,1.2503,0.69278,1.2503
2000,1.201,0.66368,1.201
2100,1.1558,0.63706,1.1558
2200,1.114,0.61261,1.114
2300,1.0754,0.59008,1.0754
2400,1.0394,0.56924,1.0394
2500,1.006,0.5499,1.006
2600,0.97478,0.53191,0.97478
2700,0.94556,0.51513,0.94556
2800,0.91814,0.49944,0.91814
2900,0.89237,0.48473,0.89237
3000,0.86809,0.47091,0.86809
3100,0.84519,0.4579,0.84519
3200,0.82353,0.44563,0.82353
3300,0.80302,0.43404,0.80302
3400,0.78358,0.42308,0.78358
3500,0.76511,0.41268,0.76511
3600,0.74754,0.40282,0.74754
3700,0.73081,0.39344,0.73081
3800,0.71486,0.38451,0.71486
3900,0.69964,0.376,0.69964
4000,0.68509,0.36789,0.68509
4100,0.67117,0.36013,0.67117
4200,0.65783,0.35272,0.65783
4300,0.64505,0.34562,0.64505
4400,0.63279,0.33882,0.63279
4500,0.62101,0.3323,0.62101
4600,0.60969,0.32603,0.60969
4700,0.5988,0.32001,0.5988
4800,0.58832,0.31423,0.58832
4900,0.57822,0.30866,0.57822
5000,0.56848,0.3033,0.56848
